t,phi,omega,T,U,E
0.000000,0.785398,0.000000,0.000000,-9.809078,-9.809078
0.010000,0.785391,-0.001345,0.000001,-9.809078,-9.809077
0.020000,0.785371,-0.002689,0.000004,-9.809078,-9.809075
0.030000,0.785338,-0.004034,0.000008,-9.809078,-9.809070
0.040000,0.785291,-0.005379,0.000014,-9.809079,-9.809064
0.050000,0.785230,-0.006723,0.000023,-9.809079,-9.809056
0.060000,0.785156,-0.008067,0.000033,-9.809079,-9.809046
0.070000,0.785069,-0.009412,0.000044,-9.809079,-9.809035
0.080000,0.784968,-0.010756,0.000058,-9.809079,-9.809022
0.090000,0.784854,-0.012099,0.000073,-9.809080,-9.809006
0.100000,0.784726,-0.013443,0.000090,-9.809080,-9.808990
0.110000,0.784585,-0.014787,0.000109,-9.809080,-9.808971
0.120000,0.784430,-0.016130,0.000130,-9.809081,-9.808951
0.130000,0.784262,-0.017473,0.000153,-9.809081,-9.808928
0.140000,0.784081,-0.018815,0.000177,-9.809081,-9.808904
0.150000,0.783886,-0.020157,0.000203,-9.809082,-9.808879
0.160000,0.783678,-0.021499,0.000231,-9.809082,-9.808851
0.170000,0.783456,-0.022841,0.000261,-9.809083,-9.808822
0.180000,0.783221,-0.024182,0.000292,-9.809083,-9.808791
0.190000,0.782972,-0.025523,0.000326,-9.809084,-9.808758
0.200000,0.782710,-0.026863,0.000361,-9.809085,-9.808724
0.210000,0.782435,-0.028203,0.000398,-9.809085,-9.808688
0.220000,0.782146,-0.029542,0.000436,-9.809086,-9.808650
0.230000,0.781844,-0.030881,0.000477,-9.809087,-9.808610
0.240000,0.781529,-0.032220,0.000519,-9.809087,-9.808568
0.250000,0.781200,-0.033557,0.000563,-9.809088,-9.808525
0.260000,0.780857,-0.034895,0.000609,-9.809089,-9.808480
0.270000,0.780502,-0.036231,0.000656,-9.809090,-9.808433
0.280000,0.780133,-0.037567,0.000706,-9.809091,-9.808385
0.290000,0.779751,-0.038903,0.000757,-9.809092,-9.808335
0.300000,0.779355,-0.040237,0.000810,-9.809092,-9.808283
0.310000,0.778946,-0.041571,0.000864,-9.809093,-9.808229
0.320000,0.778523,-0.042905,0.000920,-9.809094,-9.808174
0.330000,0.778088,-0.044237,0.000978,-9.809095,-9.808117
0.340000,0.777639,-0.045569,0.001038,-9.809096,-9.808058
0.350000,0.777176,-0.046900,0.001100,-9.809098,-9.807998
0.360000,0.776701,-0.048230,0.001163,-9.809099,-9.807936
0.370000,0.776212,-0.049559,0.001228,-9.809100,-9.807872
0.380000,0.775709,-0.050888,0.001295,-9.809101,-9.807806
0.390000,0.775194,-0.052216,0.001363,-9.809102,-9.807739
0.400000,0.774665,-0.053542,0.001433,-9.809103,-9.807670
0.410000,0.774123,-0.054868,0.001505,-9.809105,-9.807599
0.420000,0.773568,-0.056193,0.001579,-9.809106,-9.807527
0.430000,0.772999,-0.057517,0.001654,-9.809107,-9.807453
0.440000,0.772417,-0.058840,0.001731,-9.809109,-9.807377
0.450000,0.771822,-0.060162,0.001810,-9.809110,-9.807300
0.460000,0.771214,-0.061483,0.001890,-9.809111,-9.807221
0.470000,0.770593,-0.062803,0.001972,-9.809113,-9.807141
0.480000,0.769958,-0.064122,0.002056,-9.809114,-9.807058
0.490000,0.769310,-0.065439,0.002141,-9.809116,-9.806975
0.500000,0.768649,-0.066756,0.002228,-9.809117,-9.806889
0.510000,0.767975,-0.068071,0.002317,-9.809119,-9.806802
0.520000,0.767288,-0.069386,0.002407,-9.809120,-9.806713
0.530000,0.766588,-0.070699,0.002499,-9.809122,-9.806623
0.540000,0.765874,-0.072011,0.002593,-9.809124,-9.806531
0.550000,0.765147,-0.073321,0.002688,-9.809125,-9.806437
0.560000,0.764408,-0.074631,0.002785,-9.809127,-9.806342
0.570000,0.763655,-0.075939,0.002883,-9.809129,-9.806245
0.580000,0.762889,-0.077246,0.002983,-9.809130,-9.806147
0.590000,0.762110,-0.078551,0.003085,-9.809132,-9.806047
0.600000,0.761318,-0.079855,0.003188,-9.809134,-9.805946
0.610000,0.760513,-0.081158,0.003293,-9.809136,-9.805843
0.620000,0.759695,-0.082459,0.003400,-9.809138,-9.805738
0.630000,0.758864,-0.083759,0.003508,-9.809140,-9.805632
0.640000,0.758019,-0.085058,0.003617,-9.809141,-9.805524
0.650000,0.757162,-0.086355,0.003729,-9.809143,-9.805415
0.660000,0.756292,-0.087651,0.003841,-9.809145,-9.805304
0.670000,0.755409,-0.088945,0.003956,-9.809147,-9.805192
0.680000,0.754513,-0.090237,0.004071,-9.809149,-9.805078
0.690000,0.753605,-0.091528,0.004189,-9.809151,-9.804963
0.700000,0.752683,-0.092818,0.004308,-9.809154,-9.804846
0.710000,0.751748,-0.094106,0.004428,-9.809156,-9.804728
0.720000,0.750801,-0.095392,0.004550,-9.809158,-9.804608
0.730000,0.749840,-0.096677,0.004673,-9.809160,-9.804487
0.740000,0.748867,-0.097960,0.004798,-9.809162,-9.804364
0.750000,0.747881,-0.099241,0.004924,-9.809164,-9.804240
0.760000,0.746882,-0.100521,0.005052,-9.809167,-9.804114
0.770000,0.745871,-0.101798,0.005181,-9.809169,-9.803987
0.780000,0.744846,-0.103075,0.005312,-9.809171,-9.803859
0.790000,0.743809,-0.104349,0.005444,-9.809173,-9.803729
0.800000,0.742759,-0.105622,0.005578,-9.809176,-9.803598
0.810000,0.741697,-0.106892,0.005713,-9.809178,-9.803465
0.820000,0.740622,-0.108161,0.005849,-9.809180,-9.803331
0.830000,0.739534,-0.109428,0.005987,-9.809183,-9.803196
0.840000,0.738433,-0.110694,0.006127,-9.809185,-9.803059
0.850000,0.737320,-0.111957,0.006267,-9.809188,-9.802921
0.860000,0.736194,-0.113218,0.006409,-9.809190,-9.802781
0.870000,0.735055,-0.114478,0.006553,-9.809193,-9.802640
0.880000,0.733904,-0.115735,0.006697,-9.809195,-9.802498
0.890000,0.732741,-0.116991,0.006843,-9.809198,-9.802354
0.900000,0.731565,-0.118244,0.006991,-9.809200,-9.802209
0.910000,0.730376,-0.119496,0.007140,-9.809203,-9.802063
0.920000,0.729175,-0.120745,0.007290,-9.809206,-9.801916
0.930000,0.727961,-0.121993,0.007441,-9.809208,-9.801767
0.940000,0.726735,-0.123238,0.007594,-9.809211,-9.801617
0.950000,0.725496,-0.124481,0.007748,-9.809214,-9.801466
0.960000,0.724245,-0.125722,0.007903,-9.809216,-9.801313
0.970000,0.722982,-0.126961,0.008060,-9.809219,-9.801159
0.980000,0.721706,-0.128198,0.008217,-9.809222,-9.801004
0.990000,0.720418,-0.129433,0.008376,-9.809225,-9.800848
1.000000,0.719117,-0.130665,0.008537,-9.809227,-9.800691
1.010000,0.717805,-0.131895,0.008698,-9.809230,-9.800532
1.020000,0.716479,-0.133123,0.008861,-9.809233,-9.800372
1.030000,0.715142,-0.134348,0.009025,-9.809236,-9.800211
1.040000,0.713792,-0.135572,0.009190,-9.809239,-9.800049
1.050000,0.712431,-0.136793,0.009356,-9.809242,-9.799886
1.060000,0.711057,-0.138011,0.009524,-9.809245,-9.799721
1.070000,0.709670,-0.139227,0.009692,-9.809248,-9.799555
1.080000,0.708272,-0.140441,0.009862,-9.809250,-9.799389
1.090000,0.706862,-0.141653,0.010033,-9.809253,-9.799221
1.100000,0.705439,-0.142862,0.010205,-9.809256,-9.799052
1.110000,0.704004,-0.144068,0.010378,-9.809259,-9.798882
1.120000,0.702558,-0.145272,0.010552,-9.809263,-9.798710
1.130000,0.701099,-0.146474,0.010727,-9.809266,-9.798538
1.140000,0.699628,-0.147673,0.010904,-9.809269,-9.798365
1.150000,0.698146,-0.148870,0.011081,-9.809272,-9.798191
1.160000,0.696651,-0.150064,0.011260,-9.809275,-9.798015
1.170000,0.695144,-0.151255,0.011439,-9.809278,-9.797839
1.180000,0.693626,-0.152444,0.011620,-9.809281,-9.797662
1.190000,0.692095,-0.153630,0.011801,-9.809284,-9.797483
1.200000,0.690553,-0.154814,0.011984,-9.809288,-9.797304
1.210000,0.688999,-0.155995,0.012167,-9.809291,-9.797123
1.220000,0.687433,-0.157173,0.012352,-9.809294,-9.796942
1.230000,0.685856,-0.158349,0.012537,-9.809297,-9.796760
1.240000,0.684266,-0.159522,0.012724,-9.809300,-9.796577
1.250000,0.682665,-0.160692,0.012911,-9.809304,-9.796393
1.260000,0.681052,-0.161860,0.013099,-9.809307,-9.796208
1.270000,0.679428,-0.163024,0.013288,-9.809310,-9.796022
1.280000,0.677792,-0.164186,0.013479,-9.809314,-9.795835
1.290000,0.676144,-0.165345,0.013670,-9.809317,-9.795647
1.300000,0.674485,-0.166501,0.013861,-9.809320,-9.795459
1.310000,0.672814,-0.167655,0.014054,-9.809324,-9.795270
1.320000,0.671132,-0.168805,0.014248,-9.809327,-9.795079
1.330000,0.669438,-0.169953,0.014442,-9.809330,-9.794888
1.340000,0.667733,-0.171098,0.014637,-9.809334,-9.794697
1.350000,0.666016,-0.172239,0.014833,-9.809337,-9.794504
1.360000,0.664288,-0.173378,0.015030,-9.809341,-9.794311
1.370000,0.662549,-0.174514,0.015228,-9.809344,-9.794117
1.380000,0.660798,-0.175647,0.015426,-9.809348,-9.793922
1.390000,0.659036,-0.176777,0.015625,-9.809351,-9.793726
1.400000,0.657262,-0.177904,0.015825,-9.809355,-9.793530
1.410000,0.655478,-0.179027,0.016025,-9.809358,-9.793333
1.420000,0.653682,-0.180148,0.016227,-9.809362,-9.793135
1.430000,0.651875,-0.181266,0.016429,-9.809365,-9.792936
1.440000,0.650057,-0.182380,0.016631,-9.809369,-9.792737
1.450000,0.648227,-0.183492,0.016835,-9.809372,-9.792538
1.460000,0.646387,-0.184600,0.017039,-9.809376,-9.792337
1.470000,0.644535,-0.185705,0.017243,-9.809379,-9.792136
1.480000,0.642673,-0.186807,0.017448,-9.809383,-9.791934
1.490000,0.640799,-0.187906,0.017654,-9.809386,-9.791732
1.500000,0.638915,-0.189001,0.017861,-9.809390,-9.791529
1.510000,0.637019,-0.190094,0.018068,-9.809394,-9.791326
1.520000,0.635113,-0.191183,0.018275,-9.809397,-9.791122
1.530000,0.633195,-0.192268,0.018484,-9.809401,-9.790917
1.540000,0.631267,-0.193351,0.018692,-9.809405,-9.790712
1.550000,0.629328,-0.194430,0.018902,-9.809408,-9.790507
1.560000,0.627379,-0.195506,0.019111,-9.809412,-9.790301
1.570000,0.625418,-0.196578,0.019322,-9.809416,-9.790094
1.580000,0.623447,-0.197647,0.019532,-9.809419,-9.789887
1.590000,0.621465,-0.198713,0.019743,-9.809423,-9.789679
1.600000,0.619473,-0.199775,0.019955,-9.809427,-9.789472
1.610000,0.617470,-0.200834,0.020167,-9.809430,-9.789263
1.620000,0.615456,-0.201890,0.020380,-9.809434,-9.789054
1.630000,0.613432,-0.202942,0.020593,-9.809438,-9.788845
1.640000,0.611397,-0.203990,0.020806,-9.809441,-9.788635
1.650000,0.609352,-0.205035,0.021020,-9.809445,-9.788425
1.660000,0.607297,-0.206077,0.021234,-9.809449,-9.788215
1.670000,0.605231,-0.207115,0.021448,-9.809453,-9.788004
1.680000,0.603154,-0.208149,0.021663,-9.809456,-9.787793
1.690000,0.601068,-0.209180,0.021878,-9.809460,-9.787582
1.700000,0.598971,-0.210208,0.022094,-9.809464,-9.787370
1.710000,0.596864,-0.211231,0.022309,-9.809468,-9.787158
1.720000,0.594746,-0.212251,0.022525,-9.809471,-9.786946
1.730000,0.592619,-0.213268,0.022742,-9.809475,-9.786734
1.740000,0.590481,-0.214281,0.022958,-9.809479,-9.786521
1.750000,0.588333,-0.215290,0.023175,-9.809483,-9.786308
1.760000,0.586175,-0.216295,0.023392,-9.809487,-9.786095
1.770000,0.584007,-0.217297,0.023609,-9.809490,-9.785881
1.780000,0.581829,-0.218295,0.023826,-9.809494,-9.785668
1.790000,0.579641,-0.219289,0.024044,-9.809498,-9.785454
1.800000,0.577443,-0.220280,0.024262,-9.809502,-9.785240
1.810000,0.575236,-0.221267,0.024479,-9.809506,-9.785026
1.820000,0.573018,-0.222250,0.024697,-9.809509,-9.784812
1.830000,0.570791,-0.223229,0.024916,-9.809513,-9.784598
1.840000,0.568553,-0.224204,0.025134,-9.809517,-9.784383
1.850000,0.566307,-0.225176,0.025352,-9.809521,-9.784169
1.860000,0.564050,-0.226144,0.025570,-9.809525,-9.783954
1.870000,0.561784,-0.227107,0.025789,-9.809528,-9.783740
1.880000,0.559508,-0.228067,0.026007,-9.809532,-9.783525
1.890000,0.557222,-0.229023,0.026226,-9.809536,-9.783310
1.900000,0.554927,-0.229975,0.026444,-9.809540,-9.783096
1.910000,0.552623,-0.230923,0.026663,-9.809544,-9.782881
1.920000,0.550309,-0.231868,0.026881,-9.809548,-9.782666
1.930000,0.547986,-0.232808,0.027100,-9.809551,-9.782452
1.940000,0.545653,-0.233744,0.027318,-9.809555,-9.782237
1.950000,0.543311,-0.234676,0.027536,-9.809559,-9.782022
1.960000,0.540959,-0.235605,0.027755,-9.809563,-9.781808
1.970000,0.538599,-0.236529,0.027973,-9.809567,-9.781594
1.980000,0.536229,-0.237449,0.028191,-9.809570,-9.781379
1.990000,0.533850,-0.238365,0.028409,-9.809574,-9.781165
2.000000,0.531461,-0.239277,0.028627,-9.809578,-9.780951
2.010000,0.529064,-0.240185,0.028844,-9.809582,-9.780737
2.020000,0.526658,-0.241089,0.029062,-9.809586,-9.780524
2.030000,0.524242,-0.241988,0.029279,-9.809589,-9.780310
2.040000,0.521818,-0.242884,0.029496,-9.809593,-9.780097
2.050000,0.519385,-0.243775,0.029713,-9.809597,-9.779884
2.060000,0.516943,-0.244662,0.029930,-9.809601,-9.779671
2.070000,0.514491,-0.245545,0.030146,-9.809604,-9.779458
2.080000,0.512032,-0.246424,0.030362,-9.809608,-9.779246
2.090000,0.509563,-0.247299,0.030578,-9.809612,-9.779034
2.100000,0.507086,-0.248169,0.030794,-9.809616,-9.778822
2.110000,0.504600,-0.249035,0.031009,-9.809620,-9.778610
2.120000,0.502105,-0.249897,0.031224,-9.809623,-9.778399
2.130000,0.499602,-0.250754,0.031439,-9.809627,-9.778188
2.140000,0.497090,-0.251608,0.031653,-9.809631,-9.777978
2.150000,0.494570,-0.252456,0.031867,-9.809635,-9.777767
2.160000,0.492041,-0.253301,0.032081,-9.809638,-9.777558
2.170000,0.489504,-0.254141,0.032294,-9.809642,-9.777348
2.180000,0.486958,-0.254977,0.032507,-9.809646,-9.777139
2.190000,0.484404,-0.255809,0.032719,-9.809649,-9.776930
2.200000,0.481842,-0.256636,0.032931,-9.809653,-9.776722
2.210000,0.479271,-0.257459,0.033143,-9.809657,-9.776514
2.220000,0.476693,-0.258277,0.033354,-9.809660,-9.776307
2.230000,0.474106,-0.259091,0.033564,-9.809664,-9.776100
2.240000,0.471511,-0.259901,0.033774,-9.809668,-9.775894
2.250000,0.468908,-0.260706,0.033984,-9.809671,-9.775688
2.260000,0.466297,-0.261506,0.034193,-9.809675,-9.775482
2.270000,0.463678,-0.262302,0.034401,-9.809679,-9.775277
2.280000,0.461051,-0.263094,0.034609,-9.809682,-9.775073
2.290000,0.458416,-0.263881,0.034817,-9.809686,-9.774869
2.300000,0.455773,-0.264664,0.035023,-9.809690,-9.774666
2.310000,0.453123,-0.265442,0.035230,-9.809693,-9.774464
2.320000,0.450464,-0.266215,0.035435,-9.809697,-9.774261
2.330000,0.447798,-0.266984,0.035640,-9.809700,-9.774060
2.340000,0.445125,-0.267749,0.035845,-9.809704,-9.773859
2.350000,0.442443,-0.268509,0.036048,-9.809708,-9.773659
2.360000,0.439754,-0.269264,0.036252,-9.809711,-9.773460
2.370000,0.437058,-0.270015,0.036454,-9.809715,-9.773261
2.380000,0.434354,-0.270761,0.036656,-9.809718,-9.773062
2.390000,0.431643,-0.271502,0.036857,-9.809722,-9.772865
2.400000,0.428924,-0.272239,0.037057,-9.809725,-9.772668
2.410000,0.426198,-0.272971,0.037256,-9.809729,-9.772472
2.420000,0.423465,-0.273698,0.037455,-9.809732,-9.772277
2.430000,0.420724,-0.274421,0.037653,-9.809736,-9.772082
2.440000,0.417976,-0.275139,0.037851,-9.809739,-9.771888
2.450000,0.415221,-0.275852,0.038047,-9.809742,-9.771695
2.460000,0.412459,-0.276561,0.038243,-9.809746,-9.771503
2.470000,0.409690,-0.277264,0.038438,-9.809749,-9.771311
2.480000,0.406914,-0.277963,0.038632,-9.809753,-9.771121
2.490000,0.404131,-0.278658,0.038825,-9.809756,-9.770931
2.500000,0.401341,-0.279347,0.039017,-9.809759,-9.770742
2.510000,0.398544,-0.280032,0.039209,-9.809763,-9.770554
2.520000,0.395740,-0.280712,0.039400,-9.809766,-9.770366
2.530000,0.392930,-0.281387,0.039589,-9.809769,-9.770180
2.540000,0.390113,-0.282058,0.039778,-9.809773,-9.769994
2.550000,0.387289,-0.282723,0.039966,-9.809776,-9.769810
2.560000,0.384458,-0.283384,0.040153,-9.809779,-9.769626
2.570000,0.381621,-0.284040,0.040339,-9.809782,-9.769443
2.580000,0.378777,-0.284691,0.040524,-9.809786,-9.769261
2.590000,0.375927,-0.285337,0.040708,-9.809789,-9.769080
2.600000,0.373071,-0.285978,0.040892,-9.809792,-9.768900
2.610000,0.370208,-0.286614,0.041074,-9.809795,-9.768721
2.620000,0.367338,-0.287246,0.041255,-9.809798,-9.768543
2.630000,0.364463,-0.287872,0.041435,-9.809802,-9.768366
2.640000,0.361581,-0.288494,0.041614,-9.809805,-9.768190
2.650000,0.358693,-0.289110,0.041792,-9.809808,-9.768015
2.660000,0.355799,-0.289722,0.041969,-9.809811,-9.767841
2.670000,0.352899,-0.290329,0.042145,-9.809814,-9.767669
2.680000,0.349992,-0.290930,0.042320,-9.809817,-9.767497
2.690000,0.347080,-0.291527,0.042494,-9.809820,-9.767326
2.700000,0.344162,-0.292119,0.042667,-9.809823,-9.767156
2.710000,0.341238,-0.292706,0.042838,-9.809826,-9.766988
2.720000,0.338308,-0.293287,0.043009,-9.809829,-9.766820
2.730000,0.335372,-0.293864,0.043178,-9.809832,-9.766654
2.740000,0.332430,-0.294436,0.043346,-9.809835,-9.766489
2.750000,0.329483,-0.295002,0.043513,-9.809838,-9.766325
2.760000,0.326530,-0.295564,0.043679,-9.809841,-9.766162
2.770000,0.323572,-0.296120,0.043844,-9.809844,-9.766000
2.780000,0.320608,-0.296672,0.044007,-9.809846,-9.765839
2.790000,0.317638,-0.297218,0.044169,-9.809849,-9.765680
2.800000,0.314664,-0.297760,0.044330,-9.809852,-9.765522
2.810000,0.311683,-0.298296,0.044490,-9.809855,-9.765365
2.820000,0.308698,-0.298827,0.044649,-9.809858,-9.765209
2.830000,0.305707,-0.299353,0.044806,-9.809860,-9.765054
2.840000,0.302711,-0.299874,0.044962,-9.809863,-9.764901
2.850000,0.299709,-0.300389,0.045117,-9.809866,-9.764749
2.860000,0.296703,-0.300900,0.045270,-9.809868,-9.764598
2.870000,0.293691,-0.301405,0.045423,-9.809871,-9.764448
2.880000,0.290675,-0.301906,0.045574,-9.809874,-9.764300
2.890000,0.287653,-0.302401,0.045723,-9.809876,-9.764153
2.900000,0.284627,-0.302891,0.045871,-9.809879,-9.764008
2.910000,0.281595,-0.303376,0.046018,-9.809882,-9.763863
2.920000,0.278559,-0.303855,0.046164,-9.809884,-9.763720
2.930000,0.275518,-0.304329,0.046308,-9.809887,-9.763578
2.940000,0.272473,-0.304799,0.046451,-9.809889,-9.763438
2.950000,0.269422,-0.305262,0.046593,-9.809892,-9.763299
2.960000,0.266367,-0.305721,0.046733,-9.809894,-9.763161
2.970000,0.263308,-0.306175,0.046871,-9.809896,-9.763025
2.980000,0.260244,-0.306623,0.047009,-9.809899,-9.762890
2.990000,0.257176,-0.307066,0.047145,-9.809901,-9.762757
3.000000,0.254103,-0.307503,0.047279,-9.809904,-9.762624
3.010000,0.251025,-0.307936,0.047412,-9.809906,-9.762494
3.020000,0.247944,-0.308363,0.047544,-9.809908,-9.762364
3.030000,0.244858,-0.308785,0.047674,-9.809910,-9.762236
3.040000,0.241768,-0.309201,0.047803,-9.809913,-9.762110
3.050000,0.238674,-0.309613,0.047930,-9.809915,-9.761985
3.060000,0.235576,-0.310019,0.048056,-9.809917,-9.761861
3.070000,0.232474,-0.310419,0.048180,-9.809919,-9.761739
3.080000,0.229368,-0.310815,0.048303,-9.809921,-9.761618
3.090000,0.226258,-0.311205,0.048424,-9.809924,-9.761499
3.100000,0.223144,-0.311590,0.048544,-9.809926,-9.761382
3.110000,0.220026,-0.311969,0.048662,-9.809928,-9.761265
3.120000,0.216904,-0.312343,0.048779,-9.809930,-9.761151
3.130000,0.213779,-0.312712,0.048894,-9.809932,-9.761037
3.140000,0.210650,-0.313075,0.049008,-9.809934,-9.760926
3.150000,0.207517,-0.313433,0.049120,-9.809936,-9.760816
3.160000,0.204381,-0.313786,0.049231,-9.809938,-9.760707
3.170000,0.201242,-0.314133,0.049340,-9.809939,-9.760600
3.180000,0.198099,-0.314475,0.049447,-9.809941,-9.760494
3.190000,0.194952,-0.314811,0.049553,-9.809943,-9.760390
3.200000,0.191803,-0.315142,0.049657,-9.809945,-9.760288
3.210000,0.188649,-0.315468,0.049760,-9.809947,-9.760187
3.220000,0.185493,-0.315788,0.049861,-9.809949,-9.760087
3.230000,0.182334,-0.316103,0.049961,-9.809950,-9.759990
3.240000,0.179171,-0.316413,0.050059,-9.809952,-9.759894
3.250000,0.176006,-0.316717,0.050155,-9.809954,-9.759799
3.260000,0.172837,-0.317015,0.050249,-9.809955,-9.759706
3.270000,0.169665,-0.317309,0.050342,-9.809957,-9.759615
3.280000,0.166491,-0.317596,0.050434,-9.809959,-9.759525
3.290000,0.163313,-0.317879,0.050523,-9.809960,-9.759437
3.300000,0.160133,-0.318156,0.050612,-9.809962,-9.759350
3.310000,0.156950,-0.318427,0.050698,-9.809963,-9.759265
3.320000,0.153765,-0.318693,0.050783,-9.809965,-9.759182
3.330000,0.150576,-0.318954,0.050866,-9.809966,-9.759100
3.340000,0.147386,-0.319209,0.050947,-9.809968,-9.759020
3.350000,0.144192,-0.319458,0.051027,-9.809969,-9.758942
3.360000,0.140996,-0.319703,0.051105,-9.809970,-9.758865
3.370000,0.137798,-0.319941,0.051181,-9.809972,-9.758790
3.380000,0.134598,-0.320174,0.051256,-9.809973,-9.758717
3.390000,0.131395,-0.320402,0.051329,-9.809974,-9.758645
3.400000,0.128190,-0.320624,0.051400,-9.809975,-9.758575
3.410000,0.124982,-0.320841,0.051469,-9.809977,-9.758507
3.420000,0.121773,-0.321052,0.051537,-9.809978,-9.758441
3.430000,0.118561,-0.321258,0.051603,-9.809979,-9.758376
3.440000,0.115348,-0.321458,0.051668,-9.809980,-9.758312
3.450000,0.112132,-0.321653,0.051730,-9.809981,-9.758251
3.460000,0.108915,-0.321842,0.051791,-9.809982,-9.758191
3.470000,0.105695,-0.322026,0.051850,-9.809983,-9.758133
3.480000,0.102474,-0.322204,0.051908,-9.809984,-9.758077
3.490000,0.099251,-0.322377,0.051963,-9.809985,-9.758022
